6.68008e-06 	9.0002e-05 	0.172508 	0.00210285
5.67301e-05 	5.44066e-05 	0.196961 	0.0160131
0.00010678 	-1.24842e-06 	0.266201 	0.0175291
0.00015683 	-0.000138379 	0.368258 	-0.0445614
0.00020688 	-0.000491992 	0.525453 	-0.0979146
0.00025693 	-0.000345393 	0.770017 	-0.164446
0.00030698 	-0.0025515 	1.11484 	-0.251114
0.00035703 	-0.00110221 	1.58339 	-0.383449
0.00040708 	-0.00545405 	2.2147 	-0.734818
0.000457131 	-0.00269385 	3.02212 	-1.5431
0.000507181 	-0.0022842 	3.80557 	-2.96221
0.000557231 	-0.00773122 	4.29589 	-4.72227
0.000607281 	-0.00680809 	4.39577 	-6.33381
0.000657331 	-0.00618905 	4.18051 	-7.53303
0.000707381 	-0.00364509 	3.8672 	-8.27836
0.000757431 	-0.00217716 	3.55723 	-8.63434
0.000807481 	-0.00492817 	3.30573 	-8.74094
0.000857531 	-0.0027724 	3.12828 	-8.70976
0.000907581 	-0.000853929 	2.99466 	-8.58703
0.000957631 	-0.0037666 	2.8896 	-8.41493
0.00100768 	-0.00261595 	2.81105 	-8.22422
0.00105773 	0.000446393 	2.74176 	-8.01507
0.00110778 	-0.00240714 	2.67421 	-7.79324
0.00115783 	-0.00292593 	2.5989 	-7.54781
0.00120788 	-0.000541855 	2.52704 	-7.30078
0.00125793 	-0.000421278 	2.45285 	-7.05645
0.00130798 	-0.00228607 	2.37547 	-6.81429
0.00135803 	-0.00198835 	2.30257 	-6.57506
0.00140808 	-0.000107509 	2.22964 	-6.33566
0.00145813 	1.55376e-06 	2.14843 	-6.08963
0.00150818 	-0.00150352 	2.06029 	-5.84028
0.00155823 	-0.00180272 	1.96882 	-5.58677
0.00160828 	-0.000800994 	1.88349 	-5.33776
0.00165833 	0.000906011 	1.78603 	-5.07956
0.00170838 	-0.000130901 	1.68438 	-4.82086
0.00175843 	-0.0010099 	1.5771 	-4.55698
0.00180848 	-0.00121515 	1.4666 	-4.29176
0.00185853 	-0.000726319 	1.35803 	-4.02828
0.00190858 	0.000281132 	1.24367 	-3.76169
0.00195863 	0.00111072 	1.12644 	-3.49269
0.00200868 	9.44103e-05 	1.00794 	-3.2297
0.00205873 	-0.000475706 	0.887119 	-2.96937
0.00210878 	-0.00054887 	0.765677 	-2.71742
0.00215883 	-0.000465857 	0.646328 	-2.47901
0.00220888 	-0.000332054 	0.529496 	-2.25648
0.00225893 	-3.93537e-06 	0.416678 	-2.05301
0.00230898 	0.000432493 	0.310059 	-1.87319
0.00235903 	0.000648983 	0.212454 	-1.72221
0.00240908 	0.000232399 	0.126851 	-1.60479
0.00245913 	-5.03859e-05 	0.0578784 	-1.52793
0.00250918 	-0.00017137 	0.0174474 	-1.5049
0.00255923 	-0.000173696 	0.00763005 	-1.52532
0.00260928 	-0.000175156 	0.00691158 	-1.55513
0.00265933 	-0.00017431 	0.00699991 	-1.58515
0.00270938 	-0.000172567 	0.00694111 	-1.61456
0.00275943 	-0.000170785 	0.00667325 	-1.64368
0.00280948 	-0.000167309 	0.00623577 	-1.62817
0.00285953 	-0.000160226 	0.00556442 	-1.56798
0.00290958 	-0.000153044 	0.0048014 	-1.51372
0.00295963 	-0.000145393 	0.00416606 	-1.46134
0.00300968 	-0.000137754 	0.00414007 	-1.42289
0.00305973 	-0.000126789 	0.00581005 	-1.35573
0.00310978 	-0.000121291 	0.0059771 	-1.32713
0.00315983 	-0.000117675 	0.00603357 	-1.28533
0.00320988 	-0.000113325 	0.00527607 	-1.24439
0.00325993 	-0.000108355 	0.00535287 	-1.20568
0.00330998 	-0.000104808 	0.00533717 	-1.16944
0.00336003 	-0.000100659 	0.00516268 	-1.13489
0.00341008 	-9.67254e-05 	0.00496336 	-1.10185
0.00346013 	-9.09837e-05 	0.00478239 	-1.07048
0.00351018 	-8.64626e-05 	0.00465061 	-1.0405
0.00356023 	-8.20506e-05 	0.00450294 	-1.01177
0.00361028 	-7.78262e-05 	0.00436632 	-0.984268
0.00366033 	-3.16662e-05 	0.00421874 	-0.957822
0.00371038 	3.45215e-05 	0.00406664 	-0.932374
0.00376043 	0.00010049 	0.00391401 	-0.907941
0.00381048 	8.97492e-05 	0.00377077 	-0.884476
0.00386053 	1.50231e-05 	0.00363435 	-0.861967
0.00391058 	-5.81327e-05 	0.00350934 	-0.840271
0.00396063 	-6.01588e-05 	0.0033949 	-0.819276
0.00401068 	-5.90107e-05 	0.00330078 	-0.799003
0.00406073 	-5.61872e-05 	0.00317186 	-0.779653
0.00411078 	-5.3082e-05 	0.00307972 	-0.76144
0.00416083 	2.52957e-06 	0.00297773 	-0.743666
0.00421088 	8.20765e-05 	0.00284448 	-0.726233
0.00426093 	3.03634e-05 	0.0027728 	-0.709605
0.00431098 	-4.62501e-05 	0.00266682 	-0.693482
0.00436103 	-4.53575e-05 	0.0026008 	-0.677745
0.00441108 	-4.40203e-05 	0.00252104 	-0.66278
0.00446113 	-4.14774e-05 	0.00245387 	-0.648498
0.00451118 	3.37637e-05 	0.00237319 	-0.634502
0.00456123 	4.33191e-05 	0.00227312 	-0.621044
0.00461128 	-3.78577e-05 	0.00219626 	-0.607975
0.00466133 	-3.74788e-05 	0.00213132 	-0.59501
0.00471138 	-3.59347e-05 	0.0020742 	-0.582853
0.00476143 	-3.47626e-06 	0.00198075 	-0.571175
0.00481148 	5.99557e-05 	0.00190333 	-0.559667
0.00486153 	-2.35759e-05 	0.00186211 	-0.548479
0.00491158 	-3.20503e-05 	0.0017959 	-0.537548
0.00496164 	-3.06552e-05 	0.00175738 	-0.527185
0.00501169 	1.65973e-05 	0.00170539 	-0.517144
0.00506174 	2.41968e-05 	0.00164462 	-0.507293
0.00511179 	-2.81226e-05 	0.00161096 	-0.497726
0.00516184 	-2.76946e-05 	0.00157837 	-0.488383
0.00521189 	-6.58095e-06 	0.00152618 	-0.479573
0.00526194 	3.68956e-05 	0.00145578 	-0.470831
0.00531199 	-2.50985e-05 	0.00140087 	-0.462267
0.00536204 	-2.46856e-05 	0.00136439 	-0.45395
0.00541209 	-1.76711e-06 	0.00132842 	-0.446094
0.00546214 	2.37133e-05 	0.0012886 	-0.438323
0.00551219 	-2.2673e-05 	0.00125947 	-0.430685
0.00556224 	-2.21555e-05 	0.00123464 	-0.423342
0.00561229 	2.30882e-05 	0.00117743 	-0.416215
0.00566234 	-7.21523e-06 	0.00120588 	-0.409319
0.00571239 	-2.07373e-05 	0.00117557 	-0.402339
0.00576244 	-1.12876e-05 	0.00112643 	-0.39587
0.00581249 	2.18358e-05 	0.00110462 	-0.389427
0.00586254 	-1.89323e-05 	0.00108304 	-0.383154
0.00591259 	-1.82922e-05 	0.00107786 	-0.377069
0.00596264 	3.79483e-05 	0.00106541 	-0.371184
0.00601269 	-1.75331e-05 	0.00103834 	-0.365358
0.00606274 	-1.71931e-05 	0.00098835 	-0.359666
0.00611279 	3.09615e-05 	0.000969436 	-0.354229
0.00616284 	-1.63985e-05 	0.000894702 	-0.348793
0.00621289 	-1.61236e-05 	0.000910188 	-0.343547
0.00626294 	3.06727e-05 	0.000823383 	-0.338506
0.00631299 	-1.50842e-05 	0.000808412 	-0.333394
0.00636304 	-1.49735e-05 	0.000806767 	-0.328547
0.00641309 	2.82864e-05 	0.000753585 	-0.323895
0.00646314 	-1.43075e-05 	0.000725158 	-0.319149
0.00651319 	-1.37827e-05 	0.000703876 	-0.314689
0.00656324 	1.16445e-05 	0.000668343 	-0.310265
0.00661329 	-1.36228e-05 	0.000669555 	-0.305845
0.00666334 	4.68922e-06 	0.000616519 	-0.301731
0.00671339 	-9.59567e-06 	0.000602184 	-0.297641
0.00676344 	-1.25509e-05 	0.000612128 	-0.293473
0.00681349 	2.74315e-05 	0.000605191 	-0.289674
0.00686354 	-1.21396e-05 	0.000583162 	-0.285723
0.00691359 	-5.51216e-06 	0.000557839 	-0.282063
0.00696364 	-2.10849e-06 	0.000521185 	-0.278356
0.00701369 	-1.1327e-05 	0.000524444 	-0.274646
0.00706374 	2.54688e-05 	0.00051154 	-0.271212
0.00711379 	-1.09187e-05 	0.000492344 	-0.26767
0.00716384 	5.64479e-07 	0.000462813 	-0.264393
0.00721389 	-1.01636e-05 	0.000456102 	-0.261099
0.00726394 	-1.02515e-05 	0.000476554 	-0.257902
0.00731399 	9.54886e-06 	0.000451752 	-0.254854
0.00736404 	-9.84804e-06 	0.000451623 	-0.251795
0.00741409 	1.73569e-05 	0.000450547 	-0.249084
0.00746414 	-9.63268e-06 	0.000467148 	-0.246208
0.00751419 	3.68103e-06 	0.000486542 	-0.243347
0.00756424 	-9.24771e-06 	0.000404038 	-0.242216
0.00761429 	-8.87205e-06 	0.000357142 	-0.24257
0.00766434 	-3.72985e-06 	0.000346821 	-0.239669
0.00771439 	-8.80597e-06 	0.000340701 	-0.23679
0.00776444 	5.65372e-06 	0.000331872 	-0.234037
0.00781449 	-8.54036e-06 	0.000325486 	-0.231236
0.00786454 	1.26749e-05 	0.000317367 	-0.228623
0.00791459 	-8.27354e-06 	0.000310957 	-0.225904
0.00796464 	1.76035e-05 	0.000303968 	-0.223412
0.00801469 	-8.01048e-06 	0.000297102 	-0.220776
0.00806474 	1.80397e-05 	0.000290863 	-0.218395
0.00811479 	-7.7235e-06 	0.000284464 	-0.215861
0.00816484 	1.56625e-05 	0.000278357 	-0.213556
0.00821489 	-7.4541e-06 	0.000272122 	-0.211116
0.00826494 	1.4909e-05 	0.000266353 	-0.208887
0.00831499 	-7.2072e-06 	0.000260433 	-0.20653
0.00836504 	1.56226e-05 	0.000254926 	-0.204379
0.00841509 	-6.96921e-06 	0.000249413 	-0.202094
0.00846514 	1.68488e-05 	0.000244042 	-0.200022
0.00851519 	-6.73483e-06 	0.000238988 	-0.197816
0.00856524 	1.26962e-05 	0.000233705 	-0.195807
0.00861529 	-6.49145e-06 	0.000229175 	-0.193687
0.00866534 	7.49062e-06 	0.000223812 	-0.191728
0.00871539 	-6.2585e-06 	0.000219562 	-0.189693
0.00876544 	1.32275e-06 	0.000214298 	-0.187779
0.00881549 	-6.0274e-06 	0.00021068 	-0.185831
0.00886554 	-5.69237e-06 	0.000204944 	-0.183948
0.00891559 	-2.09537e-06 	0.000202108 	-0.182081
0.00896564 	-5.78632e-06 	0.000196719 	-0.180204
0.00901569 	6.39671e-06 	0.000193098 	-0.178421
0.00906574 	-5.63338e-06 	0.000188844 	-0.176574
0.00911579 	1.38089e-05 	0.000185027 	-0.17488
0.00916584 	-5.44867e-06 	0.000181177 	-0.173087
0.00921589 	3.32752e-06 	0.000176856 	-0.171436
0.00926594 	-5.23615e-06 	0.000174189 	-0.169748
0.00931599 	-5.17786e-06 	0.000169485 	-0.168095
0.00936604 	3.11889e-06 	0.000166582 	-0.166472
0.00941609 	-5.05869e-06 	0.000162437 	-0.164804
0.00946614 	1.20685e-05 	0.000158918 	-0.163277
0.00951619 	-4.88972e-06 	0.000155736 	-0.161673
0.00956624 	-7.6454e-07 	0.000152184 	-0.160182
0.00961629 	-2.10021e-06 	0.000149807 	-0.158669
0.00966634 	-4.6861e-06 	0.000145875 	-0.157137
0.00971639 	1.13598e-05 	0.000142898 	-0.155703
0.00976644 	-4.55293e-06 	0.000139818 	-0.154204
0.00981649 	-1.39105e-07 	0.000136214 	-0.152822
0.00986654 	-1.38855e-06 	0.000133871 	-0.151413
0.00991659 	-4.36399e-06 	0.000130364 	-0.14998
0.00996664 	1.07753e-05 	0.000127603 	-0.148655
0.0100167 	-4.22096e-06 	0.000125041 	-0.147274
0.0100667 	-4.15561e-06 	0.000121672 	-0.145972
0.0101168 	4.12661e-06 	0.000119593 	-0.144663
0.0101668 	-4.07651e-06 	0.000116815 	-0.143305
0.0102169 	3.03137e-06 	0.000114089 	-0.142096
0.0102669 	-2.76555e-06 	0.00011221 	-0.140838
0.010317 	-3.89679e-06 	0.000109361 	-0.139559
0.010367 	8.50047e-06 	0.000107166 	-0.138377
0.0104171 	-3.76752e-06 	0.000105286 	-0.137156
0.0104671 	-3.7323e-06 	0.000102667 	-0.135964
0.0105172 	9.24309e-06 	0.000100894 	-0.134813
0.0105672 	-3.63132e-06 	9.90589e-05 	-0.133627
0.0106173 	-3.57921e-06 	9.67109e-05 	-0.13251
0.0106673 	6.72274e-06 	9.52594e-05 	-0.131394
0.0107174 	-3.49249e-06 	9.35413e-05 	-0.130248
0.0107674 	-3.43776e-06 	9.14392e-05 	-0.129191
0.0108175 	5.75354e-06 	9.02003e-05 	-0.128115
0.0108675 	-3.36057e-06 	8.86161e-05 	-0.127014
0.0109176 	-3.30715e-06 	8.66454e-05 	-0.126002
0.0109676 	6.16668e-06 	8.54149e-05 	-0.124972
0.0110177 	-3.2298e-06 	8.40671e-05 	-0.123918
0.0110677 	-3.18567e-06 	8.23572e-05 	-0.122933
0.0111178 	7.84578e-06 	8.12852e-05 	-0.121946
0.0111678 	-3.10309e-06 	8.01005e-05 	-0.120941
0.0112179 	-3.07209e-06 	7.84829e-05 	-0.119971
0.0112679 	7.59153e-06 	7.73245e-05 	-0.119033
0.011318 	-2.97803e-06 	7.62908e-05 	-0.118081
0.011368 	-2.96536e-06 	7.471e-05 	-0.117115
0.0114181 	3.28729e-06 	7.33857e-05 	-0.116229
0.0114681 	3.80778e-07 	7.23634e-05 	-0.115318
0.0115182 	-2.8624e-06 	7.09075e-05 	-0.114369
0.0115682 	-1.86971e-06 	6.93618e-05 	-0.113528
0.0116183 	5.76706e-06 	6.82727e-05 	-0.112651
0.0116683 	-2.74448e-06 	6.69831e-05 	-0.111763
0.0117184 	-2.72085e-06 	6.53425e-05 	-0.110903
0.0117684 	4.6521e-06 	6.39322e-05 	-0.110082
0.0118185 	-3.43395e-07 	6.26309e-05 	-0.109246
0.0118685 	-2.63407e-06 	6.11604e-05 	-0.108377
0.0119186 	-2.57171e-06 	5.96547e-05 	-0.107608
0.0119686 	7.0186e-06 	5.85048e-05 	-0.106804
0.0120187 	-2.51989e-06 	5.72446e-05 	-0.106003
0.0120687 	-2.51137e-06 	5.56464e-05 	-0.105191
0.0121188 	5.27659e-07 	5.41685e-05 	-0.104455
0.0121688 	4.2088e-06 	5.29643e-05 	-0.103692
0.0122189 	-2.41225e-06 	5.16398e-05 	-0.102921
0.0122689 	-2.39684e-06 	5.01162e-05 	-0.102168
0.012319 	1.77383e-06 	4.87607e-05 	-0.101463
0.012369 	3.18801e-06 	4.76158e-05 	-0.10074
0.0124191 	-2.30786e-06 	4.63582e-05 	-0.100006
0.0124691 	-2.29074e-06 	4.49562e-05 	-0.0992943
0.0125192 	1.40264e-06 	4.37081e-05 	-0.0986261
0.0125692 	3.73067e-06 	4.26589e-05 	-0.0979404
0.0126193 	-2.20543e-06 	4.15443e-05 	-0.0972496
0.0126693 	-2.1941e-06 	4.02866e-05 	-0.0965637
0.0127194 	-3.74335e-07 	3.91581e-05 	-0.0959406
0.0127694 	5.60617e-06 	3.81809e-05 	-0.0952942
0.0128195 	-2.10645e-06 	3.72322e-05 	-0.0946519
0.0128695 	-2.10436e-06 	3.6076e-05 	-0.0939794
0.0129196 	-2.07224e-06 	3.49518e-05 	-0.0933891
0.0129696 	4.23362e-06 	3.40375e-05 	-0.0927795
0.0130197 	1.19777e-06 	3.31694e-05 	-0.0921752
0.0130697 	-2.00818e-06 	3.21916e-05 	-0.0915585
0.0131198 	-1.99379e-06 	3.11551e-05 	-0.0909602
0.0131698 	-3.45602e-07 	3.01905e-05 	-0.0904032
0.0132199 	5.77995e-06 	2.93829e-05 	-0.089832
0.0132699 	-8.69475e-07 	2.85716e-05 	-0.089268
0.01332 	-1.91217e-06 	2.76395e-05 	-0.0886802
0.01337 	-1.89344e-06 	2.66894e-05 	-0.0881399
0.0134201 	5.20851e-07 	2.58301e-05 	-0.087619
0.0134701 	4.96174e-06 	2.50981e-05 	-0.0870872
0.0135202 	-9.93625e-07 	2.44228e-05 	-0.086576
0.0135702 	-1.81988e-06 	2.39411e-05 	-0.0860832
0.0136203 	-1.80531e-06 	2.35312e-05 	-0.0856482
0.0136703 	-5.09374e-07 	2.26712e-05 	-0.0852367
0.0137204 	4.47828e-06 	2.15233e-05 	-0.0848037
0.0137704 	3.73139e-07 	2.117e-05 	-0.0843832
0.0138205 	-1.73651e-06 	2.07485e-05 	-0.0839598
0.0138705 	-1.72653e-06 	2.13688e-05 	-0.0835321
0.0139206 	-1.71143e-06 	2.071e-05 	-0.0831544
0.0139706 	1.75792e-06 	2.01972e-05 	-0.0827599
0.0140207 	3.14055e-06 	1.95284e-05 	-0.0823617
0.0140707 	-1.17222e-06 	1.90998e-05 	-0.0819667
0.0141208 	-1.65914e-06 	1.88882e-05 	-0.0815573
0.0141708 	-1.64978e-06 	1.77206e-05 	-0.0811717
0.0142209 	-1.62745e-06 	1.71941e-05 	-0.0808177
0.0142709 	1.88983e-06 	1.72124e-05 	-0.0804442
0.014321 	3.08133e-06 	1.67187e-05 	-0.0800727
0.014371 	-6.97994e-07 	1.63986e-05 	-0.0797052
0.0144211 	-1.57584e-06 	1.5805e-05 	-0.0793195
0.0144711 	-1.56936e-06 	1.52408e-05 	-0.078934
0.0145212 	-1.55182e-06 	1.47017e-05 	-0.0785877
0.0145712 	2.38438e-07 	1.42318e-05 	-0.078234
0.0146213 	3.68511e-06 	1.3791e-05 	-0.0778732
0.0146713 	1.5575e-06 	1.33517e-05 	-0.0775164
0.0147214 	-1.49586e-06 	1.29109e-05 	-0.0771609
0.0147714 	-1.49091e-06 	1.23929e-05 	-0.0767901
0.0148215 	-1.48251e-06 	1.18949e-05 	-0.0764346
0.0148715 	-1.46711e-06 	1.14174e-05 	-0.0761094
0.0149216 	-9.18676e-09 	1.09973e-05 	-0.075778
0.0149716 	2.95152e-06 	1.0656e-05 	-0.0754403
0.0150217 	2.38804e-06 	1.03017e-05 	-0.0751053
0.0150717 	-4.53531e-07 	9.97135e-06 	-0.0747731
0.0151218 	-1.40793e-06 	9.60298e-06 	-0.0744326
0.0151718 	-1.40236e-06 	9.199e-06 	-0.0740895
0.0152219 	-1.3916e-06 	8.80317e-06 	-0.0737719
0.0152719 	-1.37833e-06 	8.41649e-06 	-0.0734685
0.015322 	1.3047e-07 	8.0593e-06 	-0.0731584
0.015372 	2.58789e-06 	7.71416e-06 	-0.0728449
0.0154221 	2.81808e-06 	7.45537e-06 	-0.0725345
0.0154721 	4.62711e-07 	7.1579e-06 	-0.0722271
0.0155222 	-1.32287e-06 	6.86859e-06 	-0.0719196
0.0155722 	-1.31705e-06 	6.51945e-06 	-0.0716041
0.0156223 	-1.31129e-06 	6.19151e-06 	-0.0712919
0.0156723 	-1.30011e-06 	5.87488e-06 	-0.0710078
0.0157224 	-1.28874e-06 	5.56747e-06 	-0.0707291
0.0157724 	-3.09866e-07 	5.29068e-06 	-0.0704467
0.0158225 	1.64544e-06 	5.06121e-06 	-0.0701601
0.0158725 	3.53763e-06 	4.81569e-06 	-0.0698767
0.0159226 	1.89638e-06 	4.59066e-06 	-0.0695961
0.0159726 	8.56303e-08 	4.35007e-06 	-0.0693186
0.0160227 	-1.2302e-06 	4.11331e-06 	-0.069041
0.0160727 	-1.22434e-06 	3.82446e-06 	-0.0687584
0.0161228 	-1.21874e-06 	3.55122e-06 	-0.0684786
0.0161728 	-1.21132e-06 	3.26242e-06 	-0.0682112
0.0162229 	-1.20142e-06 	2.97419e-06 	-0.0679587
0.0162729 	-1.19191e-06 	2.68224e-06 	-0.0677088
0.016323 	-6.27024e-07 	2.38445e-06 	-0.0674579
0.016373 	8.03232e-07 	2.11107e-06 	-0.0672021
0.0164231 	2.18574e-06 	1.81587e-06 	-0.0669479
0.0164731 	3.25502e-06 	1.49203e-06 	-0.0666949
0.0165232 	1.95864e-06 	1.14639e-06 	-0.0664403
0.0165732 	6.89109e-07 	7.72327e-07 	-0.0661837
0.0166233 	-5.54171e-07 	3.70706e-07 	-0.0659246
0.0166733 	-1.12494e-06 	-7.19025e-08 	-0.065658
0.0167234 	-1.11961e-06 	-5.23314e-07 	-0.0653834
0.0167734 	-1.11434e-06 	-1.00932e-06 	-0.0651056
0.0168235 	-1.10916e-06 	-1.55785e-06 	-0.0648268
0.0168735 	-1.10113e-06 	-2.10071e-06 	-0.0645541
0.0169236 	-1.09157e-06 	-2.60027e-06 	-0.0642839
0.0169736 	-1.08208e-06 	-3.09155e-06 	-0.0640119
0.0170237 	-1.07291e-06 	-3.47506e-06 	-0.0637392
0.0170737 	-9.73823e-07 	-3.88659e-06 	-0.0634644
0.0171238 	-3.69521e-09 	-4.3372e-06 	-0.0631825
0.0171738 	9.33718e-07 	-4.80367e-06 	-0.0628995
0.0172239 	1.83675e-06 	-5.2737e-06 	-0.0626157
0.0172739 	2.70344e-06 	-5.74145e-06 	-0.0623315
0.017324 	3.52645e-06 	-6.19833e-06 	-0.0620474
0.017374 	3.13246e-06 	-6.59342e-06 	-0.0617648
0.0174241 	2.37321e-06 	-6.8472e-06 	-0.0614844
0.0174741 	1.66481e-06 	-7.21129e-06 	-0.0612038
0.0175242 	9.87629e-07 	-7.61572e-06 	-0.0609221
0.0175742 	3.39085e-07 	-8.02587e-06 	-0.0606404
0.0176243 	-2.75539e-07 	-8.43142e-06 	-0.0603593
0.0176743 	-8.54899e-07 	-8.82795e-06 	-0.0600792
0.0177244 	-9.63059e-07 	-9.21059e-06 	-0.059798
0.0177744 	-9.56486e-07 	-9.48248e-06 	-0.0595188
0.0178245 	-9.50097e-07 	-9.63675e-06 	-0.0592421
0.0178745 	-9.43978e-07 	-9.94313e-06 	-0.0589657
0.0179246 	-9.37736e-07 	-1.02765e-05 	-0.0586893
0.0179746 	-9.31389e-07 	-1.06135e-05 	-0.0584141
0.0180247 	-9.24873e-07 	-1.09458e-05 	-0.0581402
0.0180747 	-9.18329e-07 	-1.12708e-05 	-0.0578678
0.0181248 	-9.11764e-07 	-1.15881e-05 	-0.0575969
0.0181748 	-9.05182e-07 	-1.18977e-05 	-0.0573276
0.0182249 	-8.9883e-07 	-1.21997e-05 	-0.0570598
0.0182749 	-8.92497e-07 	-1.24925e-05 	-0.0567937
0.018325 	-8.85128e-07 	-1.27579e-05 	-0.0565293
0.018375 	-8.77366e-07 	-1.28508e-05 	-0.0562685
0.0184251 	-8.71213e-07 	-1.29116e-05 	-0.05601
0.0184751 	-8.65845e-07 	-1.31048e-05 	-0.0557519
0.0185252 	-8.59761e-07 	-1.33294e-05 	-0.0554943
0.0185752 	-8.53246e-07 	-1.35681e-05 	-0.0552378
0.0186253 	-8.47042e-07 	-1.38068e-05 	-0.0549823
0.0186753 	-8.40903e-07 	-1.40414e-05 	-0.0547282
0.0187254 	-8.34831e-07 	-1.42705e-05 	-0.0544753
0.0187754 	-8.28567e-07 	-1.44939e-05 	-0.0542236
0.0188255 	-8.22617e-07 	-1.47113e-05 	-0.0539733
0.0188755 	-8.16876e-07 	-1.49229e-05 	-0.0537252
0.0189256 	-8.10561e-07 	-1.51288e-05 	-0.0534794
0.0189756 	-8.04294e-07 	-1.53289e-05 	-0.0532352
0.0190257 	-7.98306e-07 	-1.55233e-05 	-0.0529926
0.0190757 	-7.92137e-07 	-1.57119e-05 	-0.0527517
0.0191258 	-7.8603e-07 	-1.58929e-05 	-0.0525123
0.0191758 	-7.79305e-07 	-1.60476e-05 	-0.052275
0.0192259 	-7.72678e-07 	-1.60222e-05 	-0.0520402
0.0192759 	-7.67536e-07 	-1.58801e-05 	-0.0518076
0.019326 	-7.62503e-07 	-1.59561e-05 	-0.0515761
0.019376 	-7.56925e-07 	-1.60816e-05 	-0.0513455
0.0194261 	-7.5127e-07 	-1.62202e-05 	-0.0511162
0.0194761 	-7.45649e-07 	-1.63592e-05 	-0.0508884
0.0195262 	-6.58515e-07 	-1.64948e-05 	-0.0506619
0.0195762 	-1.83702e-07 	-1.66257e-05 	-0.0504347
0.0196263 	3.094e-07 	-1.6751e-05 	-0.0502091
0.0196763 	8.19918e-07 	-1.68693e-05 	-0.0499852
0.0197264 	1.34066e-06 	-1.69691e-05 	-0.0497633
0.0197764 	1.87144e-06 	-1.69602e-05 	-0.0495449
0.0198265 	2.43186e-06 	-1.66871e-05 	-0.0493287
0.0198765 	3.01976e-06 	-1.66437e-05 	-0.0491126
0.0199266 	2.52333e-06 	-1.66889e-05 	-0.0488972
0.0199767 	1.88149e-06 	-1.67552e-05 	-0.048683
0.0200267 	1.21976e-06 	-1.68171e-05 	-0.0484705
0.0200768 	5.41763e-07 	-1.6823e-05 	-0.0482608
0.0201268 	-1.39527e-07 	-1.65034e-05 	-0.048055
0.0201769 	-6.78815e-07 	-1.63606e-05 	-0.0478502
0.0202269 	-6.73965e-07 	-1.63479e-05 	-0.0476416
0.020277 	-6.69195e-07 	-1.63619e-05 	-0.0474336
0.020327 	-6.63553e-07 	-1.6352e-05 	-0.0472288
0.0203771 	-6.56953e-07 	-1.60895e-05 	-0.0470278
0.0204271 	-6.52919e-07 	-1.58164e-05 	-0.0468319
0.0204772 	-6.49857e-07 	-1.57347e-05 	-0.0466417
0.0205272 	-6.4516e-07 	-1.5672e-05 	-0.046454
0.0205773 	-6.41002e-07 	-1.54781e-05 	-0.0462709
0.0206273 	-5.4599e-07 	-1.50877e-05 	-0.0460888
0.0206774 	2.99236e-07 	-1.49406e-05 	-0.0459018
0.0207274 	1.13591e-06 	-1.47468e-05 	-0.0457196
0.0207775 	1.99206e-06 	-1.42982e-05 	-0.0455398
0.0208275 	2.49443e-06 	-1.40113e-05 	-0.0453603
0.0208776 	1.57906e-06 	-1.35316e-05 	-0.0451844
0.0209276 	6.645e-07 	-1.32406e-05 	-0.0450106
0.0209777 	-2.59753e-07 	-1.28415e-05 	-0.0448419
0.0210277 	-6.06891e-07 	-1.24463e-05 	-0.0446913
0.0210778 	-6.01063e-07 	-1.1159e-05 	-0.0445658
0.0211278 	-5.99302e-07 	-1.09956e-05 	-0.0444597
0.0211779 	-5.77248e-07 	-1.15855e-05 	-0.044363
0.0212279 	-5.73406e-07 	-7.66598e-06 	-0.0442732
0.021278 	-5.92259e-07 	-2.08282e-06 	-0.0441796
0.021328 	-5.4685e-07 	-4.81397e-06 	-0.0440871
0.0213781 	1.98175e-07 	-5.65852e-06 	-0.0439958
0.0214281 	9.87553e-07 	-3.78696e-06 	-0.0439019
0.0214782 	1.69846e-06 	-4.70558e-07 	-0.0438045
0.0215282 	8.94111e-07 	1.16009e-06 	-0.0437113
0.0215783 	1.09495e-07 	2.61456e-06 	-0.0436171
0.0216283 	-5.74929e-07 	2.86227e-06 	-0.0435204
0.0216784 	-5.67575e-07 	4.88551e-06 	-0.0434184
0.0217284 	-5.6569e-07 	5.65166e-06 	-0.0433155
0.0217785 	-5.58382e-07 	6.16201e-06 	-0.0432191
0.0218285 	-5.56075e-07 	7.48295e-06 	-0.0431328
0.0218786 	-5.60355e-07 	8.85243e-06 	-0.0430467
0.0219286 	1.03041e-07 	9.95714e-06 	-0.0429538
0.0219787 	9.88634e-07 	1.05033e-05 	-0.0428604
0.0220287 	1.56813e-06 	1.11805e-05 	-0.0427662
0.0220788 	6.61745e-07 	1.1819e-05 	-0.0426692
0.0221288 	-2.79614e-07 	1.33567e-05 	-0.0425716
0.0221789 	-5.44439e-07 	1.44561e-05 	-0.0424717
0.0222289 	-5.388e-07 	1.52972e-05 	-0.042367
0.022279 	-5.32716e-07 	1.61737e-05 	-0.0422608
0.022329 	-5.32851e-07 	1.73161e-05 	-0.0421613
0.0223791 	-5.3631e-07 	1.87612e-05 	-0.042062
0.0224291 	4.90744e-07 	2.03068e-05 	-0.0419569
0.0224792 	1.51583e-06 	2.17462e-05 	-0.0418543
0.0225292 	1.06764e-06 	2.28247e-05 	-0.041753
0.0225793 	1.44756e-08 	2.34989e-05 	-0.0416513
0.0226293 	-5.23961e-07 	2.39855e-05 	-0.0415439
0.0226794 	-5.18021e-07 	2.45314e-05 	-0.0414309
0.0227294 	-5.13357e-07 	2.51778e-05 	-0.0413231
0.0227795 	-5.13721e-07 	2.59036e-05 	-0.0412272
0.0228295 	-2.52028e-07 	2.66889e-05 	-0.04113
0.0228796 	8.85139e-07 	2.74953e-05 	-0.0410264
0.0229296 	1.65938e-06 	2.81677e-05 	-0.0409227
0.0229797 	5.02833e-07 	2.8854e-05 	-0.0408191
0.0230297 	-5.05419e-07 	2.94462e-05 	-0.0407139
0.0230798 	-4.9934e-07 	3.00714e-05 	-0.0406008
0.0231298 	-4.94777e-07 	3.06607e-05 	-0.0404905
0.0231799 	-4.95225e-07 	3.12106e-05 	-0.0403964
0.0232299 	-2.36616e-07 	3.17721e-05 	-0.0403005
0.02328 	9.8426e-07 	3.23675e-05 	-0.0401972
0.02333 	1.47895e-06 	3.28869e-05 	-0.0400938
0.0233801 	2.38455e-07 	3.34506e-05 	-0.0399906
0.0234301 	-4.85764e-07 	3.39346e-05 	-0.0398834
0.0234802 	-4.80283e-07 	3.44398e-05 	-0.0397707
0.0235302 	-4.78253e-07 	3.49146e-05 	-0.0396694
0.0235803 	-4.78462e-07 	3.53507e-05 	-0.0395767
0.0236303 	4.99083e-07 	3.58125e-05 	-0.0394768
0.0236804 	1.79236e-06 	3.61962e-05 	-0.0393744
0.0237304 	5.75965e-07 	3.66136e-05 	-0.0392723
0.0237805 	-4.70864e-07 	3.69564e-05 	-0.0391683
0.0238305 	-4.66135e-07 	3.73086e-05 	-0.0390563
0.0238806 	-4.63615e-07 	3.76246e-05 	-0.0389542
0.0239306 	-4.63166e-07 	3.79015e-05 	-0.0388634
0.0239807 	5.55642e-07 	3.81866e-05 	-0.0387649
0.0240307 	1.73637e-06 	3.84038e-05 	-0.0386642
0.0240808 	3.73131e-07 	3.86305e-05 	-0.0385636
0.0241308 	-4.5555e-07 	3.8795e-05 	-0.0384593
0.0241809 	-4.52134e-07 	3.89426e-05 	-0.0383486
0.0242309 	-4.50273e-07 	3.90582e-05 	-0.0382543
0.024281 	-2.74836e-07 	3.91276e-05 	-0.0381646
0.024331 	1.12099e-06 	3.91777e-05 	-0.0380655
0.0243811 	1.07355e-06 	3.919e-05 	-0.0379669
0.0244311 	-3.35517e-07 	3.91636e-05 	-0.0378688
0.0244812 	-4.41475e-07 	3.90957e-05 	-0.0377606
0.0245312 	-4.39357e-07 	3.89902e-05 	-0.03766
0.0245813 	-4.36502e-07 	3.88458e-05 	-0.0375743
0.0246313 	7.19308e-07 	3.86489e-05 	-0.0374798
0.0246814 	1.38305e-06 	3.84217e-05 	-0.0373835
0.0247314 	-6.14108e-08 	3.81756e-05 	-0.0372882
0.0247815 	-4.30654e-07 	3.78607e-05 	-0.0371848
0.0248315 	-4.2977e-07 	3.74736e-05 	-0.0370842
0.0248816 	-4.25197e-07 	3.70527e-05 	-0.0370015
0.0249316 	6.73656e-07 	3.66341e-05 	-0.0369114
0.0249817 	1.32396e-06 	3.6207e-05 	-0.0368188
0.0250317 	-1.43877e-07 	3.56936e-05 	-0.0367261
0.0250818 	-4.20939e-07 	3.51025e-05 	-0.0366241
0.0251318 	-4.20135e-07 	3.44778e-05 	-0.0365285
0.0251819 	-4.13392e-07 	3.38342e-05 	-0.0364474
0.0252319 	1.00398e-06 	3.32123e-05 	-0.0363548
0.025282 	9.8769e-07 	3.26119e-05 	-0.03626
0.025332 	-4.09055e-07 	3.19006e-05 	-0.0361616
0.0253821 	-4.12256e-07 	3.11319e-05 	-0.0360505
0.0254321 	-4.07469e-07 	3.04486e-05 	-0.0359538
0.0254822 	1.34884e-07 	2.98301e-05 	-0.0358575
0.0255322 	1.84013e-06 	2.91051e-05 	-0.0357502
0.0255823 	3.31667e-07 	2.82599e-05 	-0.0356414
0.0256323 	-4.0014e-07 	2.75254e-05 	-0.0355231
0.0256824 	-4.00844e-07 	2.68552e-05 	-0.0354027
0.0257324 	-3.92158e-07 	2.61661e-05 	-0.035299
0.0257825 	1.2493e-06 	2.54333e-05 	-0.0351828
0.0258325 	1.05429e-06 	2.46815e-05 	-0.0350637
0.0258826 	-3.87855e-07 	2.3925e-05 	-0.0349404
0.0259326 	-3.91294e-07 	2.31974e-05 	-0.0348067
0.0259827 	-3.83381e-07 	2.25731e-05 	-0.0346951
0.0260327 	8.24215e-07 	2.2019e-05 	-0.0345772
0.0260828 	1.51679e-06 	2.1307e-05 	-0.0344536
0.0261328 	-3.763e-07 	2.05461e-05 	-0.0343282
0.0261829 	-3.80818e-07 	1.98042e-05 	-0.0341898
0.0262329 	-3.7442e-07 	1.90536e-05 	-0.0340697
0.026283 	6.47146e-07 	1.82821e-05 	-0.0339486
0.026333 	1.70878e-06 	1.74964e-05 	-0.0338211
0.0263831 	-3.366e-07 	1.67272e-05 	-0.0336943
0.0264331 	-3.68972e-07 	1.62006e-05 	-0.0335555
0.0264832 	-3.6364e-07 	1.56704e-05 	-0.0334346
0.0265332 	7.11158e-07 	1.49819e-05 	-0.0333125
0.0265833 	1.62454e-06 	1.42472e-05 	-0.0331839
0.0266333 	-3.55724e-07 	1.35142e-05 	-0.0330544
0.0266834 	-3.60192e-07 	1.28366e-05 	-0.0329131
0.0267334 	-3.52585e-07 	1.21662e-05 	-0.0327932
0.0267835 	1.03377e-06 	1.14787e-05 	-0.032669
0.0268335 	1.25771e-06 	1.07903e-05 	-0.0325405
0.0268836 	-3.46586e-07 	1.01386e-05 	-0.0324094
0.0269336 	-3.48551e-07 	9.6983e-06 	-0.0322713
0.0269837 	-3.40583e-07 	9.29434e-06 	-0.0321566
0.0270337 	1.60024e-06 	8.71499e-06 	-0.0320303
0.0270838 	6.40076e-07 	8.11483e-06 	-0.0319025
0.0271338 	-3.38292e-07 	7.54551e-06 	-0.0317679
0.0271839 	-3.37047e-07 	7.00813e-06 	-0.0316379
0.0272339 	2.09305e-07 	6.46945e-06 	-0.0315201
0.027284 	1.99079e-06 	5.91086e-06 	-0.0313931
0.027334 	-2.22886e-07 	5.3671e-06 	-0.0312662
0.0273841 	-3.30221e-07 	4.89098e-06 	-0.0311276
0.0274341 	-3.24227e-07 	4.42831e-06 	-0.0310094
0.0274842 	1.22e-06 	3.94854e-06 	-0.0308873
0.0275342 	9.22229e-07 	3.47015e-06 	-0.0307615
0.0275843 	-3.19996e-07 	3.03149e-06 	-0.0306304
0.0276343 	-3.19074e-07 	2.63641e-06 	-0.030501
0.0276844 	2.00311e-07 	2.2424e-06 	-0.0303859
0.0277344 	1.89422e-06 	1.8292e-06 	-0.0302613
0.0277845 	-3.10661e-07 	1.43229e-06 	-0.0301366
0.0278345 	-3.12433e-07 	1.10269e-06 	-0.03
0.0278846 	-3.06415e-07 	7.82136e-07 	-0.0298872
0.0279346 	1.6183e-06 	4.38534e-07 	-0.0297657
0.0279847 	4.17469e-07 	1.0229e-07 	-0.0296426
0.0280347 	-3.03846e-07 	-1.85721e-07 	-0.0295112
0.0280848 	-3.00511e-07 	-4.53237e-07 	-0.0293917
0.0281348 	9.4803e-07 	-7.49348e-07 	-0.0292755
0.0281849 	1.03208e-06 	-1.09264e-06 	-0.0291541
0.0282349 	-2.95897e-07 	-1.50364e-06 	-0.0290282
0.028285 	-2.94366e-07 	-1.80112e-06 	-0.0289046
0.028335 	4.37046e-07 	-2.00427e-06 	-0.028793
0.0283851 	1.50002e-06 	-2.22345e-06 	-0.0286726
0.0284351 	-2.87976e-07 	-2.41925e-06 	-0.0285497
0.0284852 	-2.87115e-07 	-2.56726e-06 	-0.0284222
0.0285352 	7.95386e-08 	-2.71567e-06 	-0.0283135
0.0285853 	1.81143e-06 	-2.88605e-06 	-0.0281945
0.0286353 	-2.80897e-07 	-3.04122e-06 	-0.0280745
0.0286854 	-2.80456e-07 	-3.14599e-06 	-0.0279455
0.0287354 	-1.32539e-07 	-3.24966e-06 	-0.0278393
0.0287855 	1.97678e-06 	-3.37881e-06 	-0.0277217
0.0288355 	-2.74154e-07 	-3.49841e-06 	-0.0276039
0.0288856 	-2.73744e-07 	-3.57444e-06 	-0.0274752
0.0289356 	-2.03691e-07 	-3.66314e-06 	-0.027371
0.0289857 	1.98833e-06 	-3.81906e-06 	-0.0272554
0.0290357 	-2.67712e-07 	-4.05046e-06 	-0.0271403
0.0290858 	-2.67058e-07 	-4.14329e-06 	-0.0270143
0.0291358 	-1.39354e-07 	-4.18135e-06 	-0.0269116
0.0291859 	1.89205e-06 	-4.24302e-06 	-0.0267967
0.0292359 	-2.61385e-07 	-4.29488e-06 	-0.0266811
0.029286 	-2.59911e-07 	-4.30886e-06 	-0.0265571
0.029336 	5.55963e-08 	-4.3272e-06 	-0.0264541
0.0293861 	1.65288e-06 	-4.36534e-06 	-0.0263406
0.0294361 	-2.55197e-07 	-4.39203e-06 	-0.026225
0.0294862 	-2.53389e-07 	-4.3903e-06 	-0.0261055
0.0295362 	3.74371e-07 	-4.3963e-06 	-0.0260022
0.0295863 	1.28938e-06 	-4.41692e-06 	-0.0258902
0.0296363 	-2.49094e-07 	-4.42457e-06 	-0.0257743
0.0296864 	-2.47346e-07 	-4.41673e-06 	-0.0256606
0.0297364 	8.07383e-07 	-4.42709e-06 	-0.025557
0.0297865 	8.02439e-07 	-4.47174e-06 	-0.0254473
0.0298365 	-2.43522e-07 	-4.56477e-06 	-0.0253312
0.0298866 	-2.411e-07 	-4.60641e-06 	-0.0252249
0.0299366 	1.3609e-06 	-4.59652e-06 	-0.0251195
0.0299867 	2.16734e-07 	-4.58978e-06 	-0.0250104
0.0300367 	-2.36985e-07 	-4.56449e-06 	-0.0248918
0.0300868 	-2.35037e-07 	-4.53857e-06 	-0.0247928
0.0301368 	1.88592e-06 	-4.52627e-06 	-0.0246854
0.0301869 	-2.33103e-07 	-4.51058e-06 	-0.0245765
0.0302369 	-2.31181e-07 	-4.48107e-06 	-0.0244618
0.030287 	4.17058e-07 	-4.45788e-06 	-0.024364
0.030337 	1.08292e-06 	-4.44129e-06 	-0.0242576
0.0303871 	-2.27245e-07 	-4.41815e-06 	-0.0241463
0.0304371 	-2.25385e-07 	-4.39148e-06 	-0.0240417
0.0304872 	1.27324e-06 	-4.37107e-06 	-0.023941
0.0305372 	1.85275e-07 	-4.35167e-06 	-0.0238363
0.0305873 	-2.21519e-07 	-4.32675e-06 	-0.023722
0.0306373 	-1.35892e-07 	-4.30498e-06 	-0.0236281
0.0306874 	1.55878e-06 	-4.28567e-06 	-0.0235247
0.0307374 	-2.18088e-07 	-4.26494e-06 	-0.0234186
0.0307875 	-2.1611e-07 	-4.24492e-06 	-0.0233126
0.0308375 	9.03369e-07 	-4.2272e-06 	-0.0232167
0.0308876 	4.79321e-07 	-4.20798e-06 	-0.0231149
0.0309376 	-2.12669e-07 	-4.19055e-06 	-0.0230051
0.0309877 	-2.10873e-07 	-4.17771e-06 	-0.022912
0.0310377 	1.67336e-06 	-4.16044e-06 	-0.022812
0.0310878 	-2.09059e-07 	-4.14359e-06 	-0.0227096
0.0311378 	-2.072e-07 	-4.13433e-06 	-0.0226059
0.0311879 	8.7919e-07 	-4.12367e-06 	-0.022513
0.0312379 	4.30162e-07 	-4.1075e-06 	-0.0224142
0.031288 	-2.03894e-07 	-4.09952e-06 	-0.0223071
0.031338 	-1.81171e-07 	-4.09787e-06 	-0.0222178
0.0313881 	1.45708e-06 	-4.08382e-06 	-0.0221202
0.0314381 	-2.00381e-07 	-4.07357e-06 	-0.0220196
0.0314882 	-1.98522e-07 	-4.07592e-06 	-0.0219215
0.0315382 	1.17063e-06 	-4.07063e-06 	-0.0218301
0.0315883 	6.73378e-08 	-4.05781e-06 	-0.0217343
0.0316383 	-1.95186e-07 	-4.06179e-06 	-0.0216299
0.0316884 	2.63147e-07 	-4.08828e-06 	-0.0215452
0.0317384 	9.27776e-07 	-4.04077e-06 	-0.0214521
0.0317885 	-1.92013e-07 	-4.05786e-06 	-0.0213532
0.0318385 	-1.90557e-07 	-4.07855e-06 	-0.0212645
0.0318886 	1.73052e-06 	-4.07642e-06 	-0.0211735
0.0319386 	-1.88946e-07 	-4.07543e-06 	-0.0210791
0.0319887 	-1.87346e-07 	-4.09659e-06 	-0.0209833
0.0320387 	9.85588e-07 	-4.10621e-06 	-0.0208972
0.0320888 	1.47442e-07 	-4.10444e-06 	-0.0208061
0.0321388 	-1.83942e-07 	-4.14847e-06 	-0.0207076
0.0321889 	2.88518e-07 	-4.20844e-06 	-0.0206285
0.0322389 	7.94878e-07 	-4.18238e-06 	-0.0205409
0.032289 	-1.80765e-07 	-4.20278e-06 	-0.0204461
0.032339 	-1.79563e-07 	-4.2368e-06 	-0.0203634
0.0323891 	1.38378e-06 	-4.23791e-06 	-0.0202761
0.0324391 	-1.7789e-07 	-4.24657e-06 	-0.0201859
0.0324892 	-1.76509e-07 	-4.32187e-06 	-0.0201006
0.0325392 	1.35285e-06 	-4.34816e-06 	-0.0200196
0.0325893 	-1.75143e-07 	-4.37068e-06 	-0.019934
0.0326393 	-1.73498e-07 	-4.41813e-06 	-0.019844
0.0326894 	8.65941e-07 	-4.47518e-06 	-0.0197657
0.0327394 	1.17162e-07 	-4.48788e-06 	-0.0196834
0.0327895 	-1.70566e-07 	-4.57611e-06 	-0.0195937
0.0328395 	4.33346e-07 	-4.61608e-06 	-0.0195203
0.0328896 	5.17805e-07 	-4.63247e-06 	-0.0194382
0.0329396 	-1.67991e-07 	-4.70799e-06 	-0.0193502
0.0329897 	5.95575e-08 	-4.80648e-06 	-0.0192785
0.0330397 	8.52994e-07 	-4.82037e-06 	-0.0191995
0.0330898 	-1.65247e-07 	-4.85563e-06 	-0.0191148
0.0331398 	-1.63896e-07 	-4.96199e-06 	-0.0190422
0.0331899 	1.13048e-06 	-5.00625e-06 	-0.0189657
0.0332399 	-1.6256e-07 	-5.0744e-06 	-0.0188844
0.03329 	-1.61239e-07 	-5.19841e-06 	-0.0188107
0.03334 	1.35274e-06 	-5.26309e-06 	-0.0187374
0.0333901 	-1.59936e-07 	-5.32924e-06 	-0.0186595
0.0334401 	-1.58647e-07 	-5.46217e-06 	-0.0185855
0.0334902 	1.35537e-06 	-5.5446e-06 	-0.018515
0.0335402 	-1.57375e-07 	-5.60963e-06 	-0.0184402
0.0335903 	-1.56116e-07 	-5.7507e-06 	-0.0183662
0.0336403 	1.17722e-06 	-5.84873e-06 	-0.0182983
0.0336904 	-1.54874e-07 	-5.91479e-06 	-0.0182262
0.0337404 	-1.53645e-07 	-6.06405e-06 	-0.0181526
0.0337905 	1.0457e-06 	-6.17664e-06 	-0.0180869
0.0338405 	-1.52456e-07 	-6.24682e-06 	-0.0180173
0.0338906 	-1.51551e-07 	-6.40918e-06 	-0.0179452
0.0339406 	9.58506e-07 	-6.57568e-06 	-0.0178821
0.0339907 	-1.50083e-07 	-6.70823e-06 	-0.0178137
0.0340407 	-1.4921e-07 	-6.87733e-06 	-0.0177426
0.0340908 	9.0514e-07 	-6.99885e-06 	-0.0176818
0.0341408 	-1.47769e-07 	-7.12053e-06 	-0.017616
0.0341909 	-1.47242e-07 	-7.36712e-06 	-0.0175459
0.0342409 	9.03865e-07 	-7.58471e-06 	-0.0174857
0.034291 	-1.45504e-07 	-7.79416e-06 	-0.0174215
0.034341 	-1.44821e-07 	-7.96683e-06 	-0.0173546
0.0343911 	9.28072e-07 	-8.06987e-06 	-0.0172968
0.0344411 	-1.43386e-07 	-8.21397e-06 	-0.0172332
0.0344912 	-1.43018e-07 	-8.47791e-06 	-0.0171673
0.0345412 	9.99281e-07 	-8.69615e-06 	-0.0171096
0.0345913 	-1.41295e-07 	-8.89575e-06 	-0.017047
0.0346413 	-1.40501e-07 	-9.10512e-06 	-0.0169843
0.0346914 	1.08565e-06 	-9.26023e-06 	-0.0169282
0.0347414 	-1.39373e-07 	-9.44363e-06 	-0.0168668
0.0347915 	-1.38591e-07 	-9.71864e-06 	-0.0168066
0.0348415 	1.2133e-06 	-9.94564e-06 	-0.0167501
0.0348916 	-1.37577e-07 	-1.01789e-05 	-0.0166883
0.0349416 	-1.36352e-07 	-1.04697e-05 	-0.0166307
0.0349917 	1.01863e-06 	-1.07024e-05 	-0.0165743
0.0350417 	-1.3593e-07 	-1.09531e-05 	-0.0165123
0.0350918 	-1.33997e-07 	-1.12478e-05 	-0.0164579
0.0351418 	7.96926e-07 	-1.14797e-05 	-0.0164012
0.0351919 	-1.3427e-07 	-1.17403e-05 	-0.016339
0.0352419 	-1.99486e-08 	-1.19843e-05 	-0.0162874
0.035292 	5.47164e-07 	-1.21579e-05 	-0.0162312
0.035342 	-1.32699e-07 	-1.23835e-05 	-0.0161686
0.0353921 	2.40347e-07 	-1.26429e-05 	-0.016119
0.0354421 	2.77512e-07 	-1.28708e-05 	-0.0160628
0.0354922 	-1.30792e-07 	-1.314e-05 	-0.0160002
0.0355422 	5.30377e-07 	-1.34021e-05 	-0.015951
0.0355923 	-2.26263e-08 	-1.36324e-05 	-0.0158952
0.0356423 	-1.28335e-07 	-1.39049e-05 	-0.0158347
0.0356924 	8.48772e-07 	-1.41525e-05 	-0.0157839
0.0357424 	-1.26328e-07 	-1.43824e-05 	-0.0157271
0.0357925 	-1.25844e-07 	-1.46456e-05 	-0.01567
0.0358425 	1.1271e-06 	-1.4874e-05 	-0.0156175
0.0358926 	-1.25008e-07 	-1.50999e-05 	-0.0155589
0.0359426 	-1.23316e-07 	-1.53468e-05 	-0.015506
0.0359927 	7.46297e-07 	-1.55526e-05 	-0.0154515
0.0360427 	-1.23753e-07 	-1.57692e-05 	-0.0153908
0.0360928 	1.38627e-07 	-1.59915e-05 	-0.0153409
0.0361428 	3.37082e-07 	-1.61772e-05 	-0.0152856
0.0361929 	-1.2194e-07 	-1.63798e-05 	-0.015224
0.0362429 	5.69456e-07 	-1.65722e-05 	-0.0151751
0.036293 	-1.01248e-07 	-1.67379e-05 	-0.0151198
0.036343 	-1.19248e-07 	-1.69229e-05 	-0.0150606
0.0363931 	1.02741e-06 	-1.70768e-05 	-0.0150092
0.0364431 	-1.17983e-07 	-1.72273e-05 	-0.0149517
0.0364932 	-1.16778e-07 	-1.73745e-05 	-0.0148979
0.0365432 	8.04196e-07 	-1.7511e-05 	-0.0148442
0.0365933 	-1.16548e-07 	-1.76421e-05 	-0.0147839
0.0366433 	1.61477e-07 	-1.77782e-05 	-0.0147336
0.0366934 	2.89356e-07 	-1.78856e-05 	-0.0146781
0.0367434 	-1.14366e-07 	-1.80007e-05 	-0.014617
0.0367935 	7.02112e-07 	-1.81037e-05 	-0.0145671
0.0368435 	-1.12825e-07 	-1.81866e-05 	-0.0145108
0.0368936 	-1.12053e-07 	-1.82793e-05 	-0.0144534
0.0369436 	1.06619e-06 	-1.83476e-05 	-0.0144004
0.0369937 	-1.11216e-07 	-1.84089e-05 	-0.0143411
0.0370437 	-3.49343e-08 	-1.84743e-05 	-0.0142891
0.0370938 	4.69836e-07 	-1.85095e-05 	-0.0142334
0.0371438 	-1.09326e-07 	-1.85494e-05 	-0.0141715
0.0371939 	5.81182e-07 	-1.85774e-05 	-0.0141221
0.0372439 	-1.08165e-07 	-1.85754e-05 	-0.0140666
0.037294 	-1.07491e-07 	-1.86345e-05 	-0.0140087
0.037344 	1.10908e-06 	-1.87235e-05 	-0.0139565
0.0373941 	-1.06484e-07 	-1.87412e-05 	-0.0138974
0.0374441 	-2.45468e-08 	-1.87526e-05 	-0.0138453
0.0374942 	4.41437e-07 	-1.87371e-05 	-0.0137895
0.0375442 	-1.04275e-07 	-1.87254e-05 	-0.013728
0.0375943 	6.69543e-07 	-1.8706e-05 	-0.0136779
0.0376443 	-1.03546e-07 	-1.867e-05 	-0.0136214
0.0376944 	-1.02518e-07 	-1.8644e-05 	-0.0135642
0.0377444 	9.55453e-07 	-1.8599e-05 	-0.0135106
0.0377945 	-1.01806e-07 	-1.85541e-05 	-0.0134508
0.0378445 	1.87011e-07 	-1.85411e-05 	-0.0133998
0.0378946 	2.07664e-07 	-1.85986e-05 	-0.0133447
0.0379446 	-9.98347e-08 	-1.8589e-05 	-0.0132851
0.0379947 	9.52566e-07 	-1.85481e-05 	-0.013234
0.0380447 	-9.88387e-08 	-1.84926e-05 	-0.0131761
0.0380948 	-9.81925e-08 	-1.84437e-05 	-0.0131221
0.0381448 	5.99659e-07 	-1.83746e-05 	-0.0130669
0.0381949 	-9.65522e-08 	-1.83116e-05 	-0.0130052
0.0382449 	5.99295e-07 	-1.82482e-05 	-0.0129555
0.038295 	-9.64395e-08 	-1.8175e-05 	-0.0128994
0.038345 	-9.56795e-08 	-1.81825e-05 	-0.0128428
0.0383951 	9.01242e-07 	-1.82415e-05 	-0.0127898
0.0384451 	-9.43052e-08 	-1.82167e-05 	-0.0127303
0.0384952 	3.20771e-07 	-1.81726e-05 	-0.0126796
0.0385452 	4.67817e-08 	-1.81092e-05 	-0.012624
0.0385953 	-9.26728e-08 	-1.80557e-05 	-0.0125653
0.0386453 	1.14428e-06 	-1.79934e-05 	-0.0125128
0.0386954 	-9.1772e-08 	-1.79308e-05 	-0.0124538
0.0387454 	1.21281e-07 	-1.78783e-05 	-0.0124018
0.0387955 	2.33497e-07 	-1.78226e-05 	-0.0123467
0.0388455 	-9.07228e-08 	-1.7873e-05 	-0.012288
0.0388956 	1.03778e-06 	-1.79572e-05 	-0.012237
0.0389456 	-8.94999e-08 	-1.79526e-05 	-0.0121791
0.0389957 	-3.26187e-09 	-1.79306e-05 	-0.0121263
0.0390457 	3.51633e-07 	-1.78901e-05 	-0.0120707
0.0390958 	-8.73698e-08 	-1.78576e-05 	-0.0120109
0.0391458 	9.60498e-07 	-1.78232e-05 	-0.0119596
0.0391959 	-8.69176e-08 	-1.77888e-05 	-0.0119022
0.0392459 	-5.43717e-08 	-1.78278e-05 	-0.0118496
0.039296 	3.88425e-07 	-1.798e-05 	-0.0117948
0.039346 	-8.56352e-08 	-1.80285e-05 	-0.0117355
0.0393961 	9.55465e-07 	-1.80324e-05 	-0.0116842
0.0394461 	-8.43676e-08 	-1.80239e-05 	-0.0116263
0.0394962 	-3.17938e-08 	-1.80216e-05 	-0.011573
0.0395462 	3.56889e-07 	-1.80225e-05 	-0.0115176
0.0395963 	-8.34612e-08 	-1.81427e-05 	-0.0114586
0.0396463 	1.01039e-06 	-1.82987e-05 	-0.0114076
0.0396964 	-8.2097e-08 	-1.83476e-05 	-0.01135
0.0397464 	6.23012e-08 	-1.837e-05 	-0.0112972
0.0397965 	2.55884e-07 	-1.83741e-05 	-0.0112414
0.0398465 	-8.049e-08 	-1.8383e-05 	-0.0111824
0.0398966 	1.15109e-06 	-1.84285e-05 	-0.0111301
0.0399466 	-8.0126e-08 	-1.86073e-05 	-0.0110719
0.0399967 	2.25772e-07 	-1.87543e-05 	-0.0110199
0.0400467 	7.96734e-08 	-1.87935e-05 	-0.0109648
0.0400968 	-7.76435e-08 	-1.88141e-05 	-0.0109066
0.0401468 	9.95855e-07 	-1.88235e-05 	-0.010853
0.0401969 	-7.74365e-08 	-1.88282e-05 	-0.0107934
0.0402469 	4.61791e-07 	-1.8902e-05 	-0.0107419
0.040297 	-7.60943e-08 	-1.9128e-05 	-0.0106863
0.040347 	-7.5375e-08 	-1.92397e-05 	-0.0106299
0.0403971 	7.21925e-07 	-1.9264e-05 	-0.0105754
0.0404471 	-7.48432e-08 	-1.92711e-05 	-0.0105146
0.0404972 	7.70616e-07 	-1.93327e-05 	-0.0104633
0.0405472 	-7.3928e-08 	-1.95353e-05 	-0.0104063
0.0405973 	-7.26835e-08 	-1.96709e-05 	-0.0103525
0.0406473 	3.76586e-07 	-1.96825e-05 	-0.010297
0.0406974 	-7.16621e-08 	-1.96712e-05 	-0.0102375
0.0407474 	1.15005e-06 	-1.96505e-05 	-0.0101844
0.0407975 	-7.13614e-08 	-1.96158e-05 	-0.0101256
0.0408475 	3.11993e-07 	-1.96602e-05 	-0.0100731
0.0408976 	-3.74599e-08 	-1.99003e-05 	-0.0100175
0.0409476 	-6.95739e-08 	-1.99648e-05 	-0.0099597
0.0409977 	7.84789e-07 	-1.99422e-05 	-0.00990466
0.0410477 	-6.89398e-08 	-1.99324e-05 	-0.00984411
0.0410978 	7.82092e-07 	-1.99628e-05 	-0.0097929
0.0411478 	-6.8063e-08 	-2.01209e-05 	-0.0097356
0.0411979 	-7.91723e-09 	-2.01747e-05 	-0.00968105
0.0412479 	2.74079e-07 	-2.01298e-05 	-0.00962426
0.041298 	-6.65901e-08 	-2.02244e-05 	-0.0095655
0.041348 	1.05169e-06 	-2.03809e-05 	-0.00951212
0.0413981 	-6.51892e-08 	-2.03588e-05 	-0.0094526
0.0414481 	5.60539e-07 	-2.02681e-05 	-0.0093998
0.0414982 	-6.444e-08 	-2.01533e-05 	-0.00934239
0.0415482 	-6.37413e-08 	-2.0161e-05 	-0.00928645
0.0415983 	4.52256e-07 	-2.03173e-05 	-0.00923081
0.0416483 	-6.27408e-08 	-2.02889e-05 	-0.0091713
0.0416984 	1.19634e-06 	-2.01986e-05 	-0.00911757
0.0417484 	-6.18214e-08 	-2.01393e-05 	-0.00905836
0.0417985 	4.60976e-07 	-2.01111e-05 	-0.00900517
0.0418485 	-6.12622e-08 	-2.0165e-05 	-0.00894852
0.0418986 	-6.04379e-08 	-2.00716e-05 	-0.00889194
0.0419486 	4.99205e-07 	-1.9935e-05 	-0.00883581
0.0419987 	-5.96066e-08 	-1.9949e-05 	-0.00877645
0.0420487 	1.19107e-06 	-2.00076e-05 	-0.008723
0.0420988 	-5.87715e-08 	-1.98953e-05 	-0.00866347
0.0421488 	4.96609e-07 	-1.98079e-05 	-0.00860969
0.0421989 	-5.80412e-08 	-1.98935e-05 	-0.00855266
0.0422489 	-5.72343e-08 	-1.98367e-05 	-0.00849639
0.042299 	4.16339e-07 	-1.96679e-05 	-0.00844007
0.042349 	-5.60399e-08 	-1.95974e-05 	-0.00838111
0.0423991 	1.08436e-06 	-1.95896e-05 	-0.00832718
0.0424491 	-5.45898e-08 	-1.94498e-05 	-0.00826758
0.0424992 	6.56339e-07 	-1.92699e-05 	-0.00821421
0.0425492 	-5.44618e-08 	-1.90398e-05 	-0.00815649
0.0425993 	9.95158e-09 	-1.89015e-05 	-0.00810115
0.0426493 	2.06048e-07 	-1.89345e-05 	-0.00804467
0.0426994 	-5.29409e-08 	-1.87963e-05 	-0.00798648
0.0427494 	8.38598e-07 	-1.86102e-05 	-0.00793159
0.0427995 	-5.16781e-08 	-1.85537e-05 	-0.00787161
0.0428495 	9.4103e-07 	-1.85025e-05 	-0.0078186
0.0428996 	-5.12412e-08 	-1.83152e-05 	-0.00776015
0.0429496 	3.31964e-07 	-1.81559e-05 	-0.00770563
0.0429997 	-5.09516e-08 	-1.81525e-05 	-0.00764889
0.0430497 	-5.00481e-08 	-1.80079e-05 	-0.00759208
0.0430998 	4.66627e-07 	-1.78009e-05 	-0.00753628
0.0431498 	-4.87274e-08 	-1.76919e-05 	-0.0074776
0.0431999 	1.0502e-06 	-1.76314e-05 	-0.00742336
0.0432499 	-4.76813e-08 	-1.74471e-05 	-0.00736403
0.0433 	7.73224e-07 	-1.72726e-05 	-0.00731079
0.04335 	-4.76564e-08 	-1.7213e-05 	-0.00725308
0.0434001 	2.12965e-07 	-1.71562e-05 	-0.00719825
0.0434501 	-2.57626e-08 	-1.71497e-05 	-0.00714188
0.0435002 	-4.61285e-08 	-1.69903e-05 	-0.00708493
0.0435502 	5.21361e-07 	-1.67946e-05 	-0.00702959
0.0436003 	-4.48183e-08 	-1.66632e-05 	-0.00697114
0.0436503 	1.05727e-06 	-1.65744e-05 	-0.00691695
0.0437004 	-4.38071e-08 	-1.63973e-05 	-0.00685804
0.0437504 	8.09519e-07 	-1.62197e-05 	-0.0068048
0.0438005 	-4.35684e-08 	-1.61359e-05 	-0.00674695
0.0438505 	2.9458e-07 	-1.59986e-05 	-0.00669226
0.0439006 	-4.33045e-08 	-1.58352e-05 	-0.00663619
0.0439506 	-4.25236e-08 	-1.56782e-05 	-0.00657999
0.0440007 	3.77181e-07 	-1.56247e-05 	-0.0065242
0.0440507 	-4.15319e-08 	-1.55294e-05 	-0.00646661
0.0441008 	8.62751e-07 	-1.54573e-05 	-0.00641239
0.0441508 	-4.03129e-08 	-1.53185e-05 	-0.00635403
0.0442009 	1.03904e-06 	-1.51786e-05 	-0.00630102
0.0442509 	-3.98237e-08 	-1.50904e-05 	-0.00624284
0.044301 	5.7033e-07 	-1.49801e-05 	-0.00618877
0.044351 	-3.94349e-08 	-1.48773e-05 	-0.00613231
0.0444011 	1.11377e-07 	-1.47465e-05 	-0.00607752
0.0444511 	4.06649e-08 	-1.47048e-05 	-0.00602159
0.0445012 	-3.80874e-08 	-1.45979e-05 	-0.00596511
0.0445512 	4.8284e-07 	-1.45525e-05 	-0.00591005
0.0446013 	-3.72315e-08 	-1.44579e-05 	-0.00585302
0.0446513 	9.20024e-07 	-1.43922e-05 	-0.00579923
0.0447014 	-3.64787e-08 	-1.43214e-05 	-0.00574069
0.0447514 	1.03471e-06 	-1.42562e-05 	-0.0056872
0.0448015 	-3.59397e-08 	-1.42034e-05 	-0.00562993
0.0448515 	6.1323e-07 	-1.41382e-05 	-0.00557664
0.0449016 	-3.52855e-08 	-1.41293e-05 	-0.0055207
0.0449516 	2.15163e-07 	-1.40656e-05 	-0.00546612
0.0450017 	-3.45394e-08 	-1.40625e-05 	-0.00540972
0.0450517 	-3.38569e-08 	-1.40088e-05 	-0.00535388
0.0451018 	3.06814e-07 	-1.40561e-05 	-0.00529915
0.0451518 	-3.3255e-08 	-1.40196e-05 	-0.00524316
0.0452019 	6.9201e-07 	-1.40186e-05 	-0.00518913
0.0452519 	-3.25715e-08 	-1.39788e-05 	-0.00513155
0.045302 	1.06418e-06 	-1.39654e-05 	-0.00507736
0.045352 	-3.22122e-08 	-1.39498e-05 	-0.00501991
0.0454021 	9.34527e-07 	-1.39484e-05 	-0.00496732
0.0454521 	-3.15959e-08 	-1.40268e-05 	-0.00491115
0.0455022 	5.92392e-07 	-1.40553e-05 	-0.00485758
0.0455522 	-3.05624e-08 	-1.41e-05 	-0.00480093
0.0456023 	2.51914e-07 	-1.40736e-05 	-0.00474614
0.0456523 	-2.96181e-08 	-1.41223e-05 	-0.00469071
0.0457024 	-2.88865e-08 	-1.41405e-05 	-0.00463599
0.0457524 	1.90748e-07 	-1.43182e-05 	-0.00458152
0.0458025 	-2.85062e-08 	-1.43561e-05 	-0.00452591
0.0458525 	5.14817e-07 	-1.44277e-05 	-0.00447122
0.0459026 	-2.81514e-08 	-1.4438e-05 	-0.00441447
0.0459526 	8.21623e-07 	-1.45089e-05 	-0.0043601
0.0460027 	-2.81756e-08 	-1.46066e-05 	-0.00430359
0.0460527 	1.10933e-06 	-1.47595e-05 	-0.00425081
0.0461028 	-2.75537e-08 	-1.48483e-05 	-0.00419467
0.0461528 	9.3966e-07 	-1.49257e-05 	-0.00414187
0.0462029 	-2.62448e-08 	-1.50051e-05 	-0.00408533
0.0462529 	6.65096e-07 	-1.5048e-05 	-0.00403118
0.046303 	-2.52119e-08 	-1.51347e-05 	-0.00397481
0.046353 	3.85577e-07 	-1.51717e-05 	-0.00392062
0.0464031 	-2.4342e-08 	-1.52794e-05 	-0.00386577
0.0464531 	1.19649e-07 	-1.53673e-05 	-0.003812
0.0465032 	-2.32832e-08 	-1.56527e-05 	-0.0037579
0.0465532 	-2.27647e-08 	-1.57485e-05 	-0.00370317
0.0466033 	2.19127e-07 	-1.58954e-05 	-0.00364821
0.0466533 	-2.23549e-08 	-1.59462e-05 	-0.00359257
0.0467034 	4.63036e-07 	-1.60674e-05 	-0.0035379
0.0467534 	-2.21931e-08 	-1.61264e-05 	-0.0034821
0.0468035 	6.91392e-07 	-1.62605e-05 	-0.00342815
0.0468535 	-2.23239e-08 	-1.64364e-05 	-0.00337277
0.0469036 	9.09738e-07 	-1.66837e-05 	-0.00331985
0.0469536 	-2.18535e-08 	-1.68266e-05 	-0.00326445
0.0470037 	1.13223e-06 	-1.69502e-05 	-0.00321157
0.0470537 	-2.08147e-08 	-1.70565e-05 	-0.00315556
0.0471038 	1.00156e-06 	-1.71545e-05 	-0.00310217
0.0471538 	-1.97795e-08 	-1.7265e-05 	-0.00304627
0.0472039 	8.01453e-07 	-1.73534e-05 	-0.0029926
0.0472539 	-1.88333e-08 	-1.74732e-05 	-0.00293702
0.047304 	6.07766e-07 	-1.75556e-05 	-0.00288328
0.047354 	-1.81292e-08 	-1.76866e-05 	-0.00282828
0.0474041 	4.2199e-07 	-1.78156e-05 	-0.00277479
0.0474541 	-1.73151e-08 	-1.81136e-05 	-0.00272061
0.0475042 	2.48868e-07 	-1.82751e-05 	-0.00266721
0.0475542 	-1.61971e-08 	-1.84546e-05 	-0.00261313
0.0476043 	8.61832e-08 	-1.85312e-05 	-0.00255923
0.0476543 	-1.52104e-08 	-1.8687e-05 	-0.00250485
0.0477044 	-1.46e-08 	-1.87478e-05 	-0.00245049
0.0477544 	1.20769e-07 	-1.88959e-05 	-0.00239618
0.0478045 	-1.41429e-08 	-1.89604e-05 	-0.00234171
0.0478545 	2.65961e-07 	-1.90999e-05 	-0.00228762
0.0479046 	-1.36707e-08 	-1.91692e-05 	-0.0022331
0.0479546 	4.02558e-07 	-1.9301e-05 	-0.00217922
0.0480047 	-1.31733e-08 	-1.93743e-05 	-0.00212469
0.0480547 	5.30587e-07 	-1.94986e-05 	-0.002071
0.0481048 	-1.27112e-08 	-1.95753e-05 	-0.00201648
0.0481548 	6.47434e-07 	-1.96961e-05 	-0.00196302
0.0482049 	-1.25161e-08 	-1.97898e-05 	-0.00190882
0.0482549 	7.54795e-07 	-1.99399e-05 	-0.00185592
0.048305 	-1.23111e-08 	-2.01135e-05 	-0.00180195
0.048355 	8.6038e-07 	-2.03425e-05 	-0.00174914
0.0484051 	-1.14761e-08 	-2.04667e-05 	-0.0016949
0.0484551 	9.59674e-07 	-2.05821e-05 	-0.0016418
0.0485052 	-1.05204e-08 	-2.06676e-05 	-0.00158741
0.0485552 	1.04735e-06 	-2.07597e-05 	-0.00153435
0.0486053 	-9.85403e-09 	-2.08377e-05 	-0.00147999
0.0486553 	1.12621e-06 	-2.09205e-05 	-0.001427
0.0487054 	-9.17005e-09 	-2.09953e-05 	-0.00137274
0.0487554 	1.10663e-06 	-2.10711e-05 	-0.00131982
0.0488055 	-8.41987e-09 	-2.11429e-05 	-0.00126573
0.0488555 	1.04079e-06 	-2.12121e-05 	-0.00121282
0.0489056 	-7.6853e-09 	-2.12803e-05 	-0.00115889
0.0489556 	9.82851e-07 	-2.13433e-05 	-0.00110599
0.0490057 	-6.92068e-09 	-2.14071e-05 	-0.00105221
0.0490557 	9.32656e-07 	-2.1464e-05 	-0.000999326
0.0491058 	-6.18847e-09 	-2.15229e-05 	-0.000945698
0.0491558 	8.90147e-07 	-2.15738e-05 	-0.000892851
0.0492059 	-5.47866e-09 	-2.16274e-05 	-0.000839363
0.0492559 	8.55302e-07 	-2.16724e-05 	-0.000786555
0.049306 	-4.77296e-09 	-2.17201e-05 	-0.000733204
0.049356 	8.28017e-07 	-2.17593e-05 	-0.000680443
0.0494061 	-4.0762e-09 	-2.18008e-05 	-0.000627228
0.0494561 	8.0823e-07 	-2.18343e-05 	-0.000574518
0.0495062 	-3.38865e-09 	-2.18692e-05 	-0.000521437
0.0495562 	7.9587e-07 	-2.18971e-05 	-0.000468785
0.0496063 	-2.70668e-09 	-2.19252e-05 	-0.000415836
0.0496563 	7.90894e-07 	-2.19476e-05 	-0.000363244
0.0497064 	-2.03037e-09 	-2.19686e-05 	-0.000310425
0.0497564 	7.93203e-07 	-2.19854e-05 	-0.000257895
0.0498065 	-1.35793e-09 	-2.19992e-05 	-0.000205208
0.0498565 	7.99875e-07 	-2.20105e-05 	-0.000152865
0.0499066 	-6.88176e-10 	-2.20171e-05 	-0.000100618
0.0499566 	4.07662e-07 	-2.20228e-05 	-6.52622e-05
0.05 	7.55977e-20 	-1.54504e-05 	-5.57247e-05
